# column 1: wavelength, nm
# column 2: refractive index
300 1.00029157
309.03 1.00029036
318.06 1.00028926
327.09 1.00028827
336.12 1.00028736
345.151 1.00028653
354.181 1.00028578
363.211 1.00028508
372.241 1.00028444
381.271 1.00028385
390.301 1.00028330
399.331 1.00028280
408.361 1.00028233
417.391 1.00028189
426.421 1.00028148
435.452 1.00028110
444.482 1.00028074
453.512 1.00028041
462.542 1.00028009
471.572 1.00027980
480.602 1.00027952
489.632 1.00027926
498.662 1.00027901
507.692 1.00027878
516.722 1.00027856
525.753 1.00027835
534.783 1.00027815
543.813 1.00027796
552.843 1.00027778
561.873 1.00027761
570.903 1.00027745
579.933 1.00027730
588.963 1.00027715
597.993 1.00027701
607.023 1.00027688
616.054 1.00027675
625.084 1.00027663
634.114 1.00027652
643.144 1.00027641
652.174 1.00027630
661.204 1.00027620
670.234 1.00027610
679.264 1.00027601
688.294 1.00027592
697.324 1.00027583
706.355 1.00027575
715.385 1.00027567
724.415 1.00027559
733.445 1.00027552
742.475 1.00027544
751.505 1.00027538
760.535 1.00027531
769.565 1.00027525
778.595 1.00027519
787.625 1.00027513
796.656 1.00027507
805.686 1.00027501
814.716 1.00027496
823.746 1.00027491
832.776 1.00027486
841.806 1.00027481
850.836 1.00027476
859.866 1.00027472
868.896 1.00027467
877.926 1.00027463
886.957 1.00027459
895.987 1.00027455
905.017 1.00027451
914.047 1.00027447
923.077 1.00027444
932.107 1.00027440
941.137 1.00027437
950.167 1.00027433
959.197 1.00027430
968.227 1.00027427
977.258 1.00027424
986.288 1.00027421
995.318 1.00027418
1004.35 1.00027415
1013.38 1.00027413
1022.41 1.00027410
1031.44 1.00027407
1040.47 1.00027405
1049.5 1.00027402
1058.53 1.00027400
1067.56 1.00027398
1076.59 1.00027395
1085.62 1.00027393
1094.65 1.00027391
1103.68 1.00027389
1112.71 1.00027387
1121.74 1.00027385
1130.77 1.00027383
1139.8 1.00027381
1148.83 1.00027379
1157.86 1.00027377
1166.89 1.00027375
1175.92 1.00027374
1184.95 1.00027372
1193.98 1.00027370
1203.01 1.00027369
1212.04 1.00027367
1221.07 1.00027365
1230.1 1.00027364
1239.13 1.00027362
1248.16 1.00027361
1257.19 1.00027360
1266.22 1.00027358
1275.25 1.00027357
1284.28 1.00027355
1293.31 1.00027354
1302.34 1.00027353
1311.37 1.00027352
1320.4 1.00027350
1329.43 1.00027349
1338.46 1.00027348
1347.49 1.00027347
1356.52 1.00027346
1365.55 1.00027345
1374.58 1.00027343
1383.61 1.00027342
1392.64 1.00027341
1401.67 1.00027340
1410.7 1.00027339
1419.73 1.00027338
1428.76 1.00027337
1437.79 1.00027336
1446.82 1.00027336
1455.85 1.00027335
1464.88 1.00027334
1473.91 1.00027333
1482.94 1.00027332
1491.97 1.00027331
1501 1.00027330
1510.03 1.00027329
1519.06 1.00027329
1528.09 1.00027328
1537.12 1.00027327
1546.15 1.00027326
1555.18 1.00027326
1564.21 1.00027325
1573.24 1.00027324
1582.27 1.00027323
1591.3 1.00027323
1600.33 1.00027322
1609.36 1.00027321
1618.39 1.00027321
1627.42 1.00027320
1636.45 1.00027319
1645.48 1.00027319
1654.52 1.00027318
1663.55 1.00027318
1672.58 1.00027317
1681.61 1.00027316
1690.64 1.00027316
1699.67 1.00027315
1708.7 1.00027315
1717.73 1.00027314
1726.76 1.00027314
1735.79 1.00027313
1744.82 1.00027312
1753.85 1.00027312
1762.88 1.00027311
1771.91 1.00027311
1780.94 1.00027310
1789.97 1.00027310
1799 1.00027309
1808.03 1.00027309
1817.06 1.00027309
1826.09 1.00027308
1835.12 1.00027308
1844.15 1.00027307
1853.18 1.00027307
1862.21 1.00027306
1871.24 1.00027306
1880.27 1.00027305
1889.3 1.00027305
1898.33 1.00027305
1907.36 1.00027304
1916.39 1.00027304
1925.42 1.00027303
1934.45 1.00027303
1943.48 1.00027303
1952.51 1.00027302
1961.54 1.00027302
1970.57 1.00027302
1979.6 1.00027301
1988.63 1.00027301
1997.66 1.00027300
2006.69 1.00027300
2015.72 1.00027300
2024.75 1.00027299
2033.78 1.00027299
2042.81 1.00027299
2051.84 1.00027298
2060.87 1.00027298
2069.9 1.00027298
2078.93 1.00027298
2087.96 1.00027297
2096.99 1.00027297
2106.02 1.00027297
2115.05 1.00027296
2124.08 1.00027296
2133.11 1.00027296
2142.14 1.00027295
2151.17 1.00027295
2160.2 1.00027295
2169.23 1.00027295
2178.26 1.00027294
2187.29 1.00027294
2196.32 1.00027294
2205.35 1.00027294
2214.38 1.00027293
2223.41 1.00027293
2232.44 1.00027293
2241.47 1.00027293
2250.5 1.00027292
2259.53 1.00027292
2268.56 1.00027292
2277.59 1.00027292
2286.62 1.00027291
2295.65 1.00027291
2304.68 1.00027291
2313.71 1.00027291
2322.74 1.00027290
2331.77 1.00027290
2340.8 1.00027290
2349.83 1.00027290
2358.86 1.00027290
2367.89 1.00027289
2376.92 1.00027289
2385.95 1.00027289
2394.98 1.00027289
2404.01 1.00027289
2413.04 1.00027288
2422.07 1.00027288
2431.1 1.00027288
2440.13 1.00027288
2449.16 1.00027288
2458.19 1.00027287
2467.22 1.00027287
2476.25 1.00027287
2485.28 1.00027287
2494.31 1.00027287
2503.34 1.00027286
2512.37 1.00027286
2521.4 1.00027286
2530.43 1.00027286
2539.46 1.00027286
2548.49 1.00027286
2557.53 1.00027285
2566.56 1.00027285
2575.59 1.00027285
2584.62 1.00027285
2593.65 1.00027285
2602.68 1.00027285
2611.71 1.00027285
2620.74 1.00027284
2629.77 1.00027284
2638.8 1.00027284
2647.83 1.00027284
2656.86 1.00027284
2665.89 1.00027284
2674.92 1.00027283
2683.95 1.00027283
2692.98 1.00027283
2702.01 1.00027283
2711.04 1.00027283
2720.07 1.00027283
2729.1 1.00027283
2738.13 1.00027282
2747.16 1.00027282
2756.19 1.00027282
2765.22 1.00027282
2774.25 1.00027282
2783.28 1.00027282
2792.31 1.00027282
2801.34 1.00027282
2810.37 1.00027281
2819.4 1.00027281
2828.43 1.00027281
2837.46 1.00027281
2846.49 1.00027281
2855.52 1.00027281
2864.55 1.00027281
2873.58 1.00027281
2882.61 1.00027280
2891.64 1.00027280
2900.67 1.00027280
2909.7 1.00027280
2918.73 1.00027280
2927.76 1.00027280
2936.79 1.00027280
2945.82 1.00027280
2954.85 1.00027280
2963.88 1.00027279
2972.91 1.00027279
2981.94 1.00027279
2990.97 1.00027279
3000 1.00027279
